Time (s),Speed (km/h),Acceleration (m/s2),Partial distance (m)/ Speed(m/s),Total distance (m)
0,0.0,0.0,0.0,0.0
1,0.0,0.0,0.0,0.0
2,0.0,0.0,0.0,0.0
3,0.0,0.0,0.0,0.0
4,0.0,0.0,0.0,0.0
5,0.0,0.0,0.0,0.0
6,0.0,0.0,0.0,0.0
7,0.0,0.0,0.0,0.0
8,0.0,0.0,0.0,0.0
9,0.0,0.0,0.0,0.0
10,0.0,0.0,0.0,0.0
11,0.0,0.0,0.0,0.0
12,0.2,0.05555555555555556,0.05555555555555556,0.05555555555555556
13,1.7,0.41666666666666663,0.4722222222222222,0.5277777777777778
14,5.4,1.027777777777778,1.5,2.0277777777777777
15,9.9,1.25,2.75,4.777777777777778
16,13.1,0.8888888888888886,3.638888888888889,8.416666666666666
17,16.9,1.0555555555555551,4.694444444444444,13.11111111111111
18,21.7,1.3333333333333335,6.027777777777778,19.13888888888889
19,26.0,1.1944444444444446,7.222222222222222,26.36111111111111
20,27.5,0.41666666666666663,7.638888888888888,34.0
21,28.1,0.16666666666666705,7.805555555555555,41.80555555555556
22,28.3,0.05555555555555536,7.861111111111111,49.66666666666667
23,28.8,0.1388888888888889,8.0,57.66666666666667
24,29.1,0.08333333333333352,8.083333333333334,65.75
25,30.8,0.472222222222222,8.555555555555555,74.30555555555556
26,31.9,0.30555555555555497,8.86111111111111,83.16666666666667
27,34.1,0.6111111111111119,9.472222222222223,92.6388888888889
28,36.6,0.6944444444444444,10.166666666666666,102.80555555555557
29,39.1,0.6944444444444444,10.86111111111111,113.66666666666669
30,41.3,0.6111111111111099,11.472222222222221,125.13888888888891
31,42.5,0.3333333333333341,11.805555555555555,136.94444444444446
32,43.3,0.22222222222222143,12.027777777777777,148.97222222222223
33,43.9,0.16666666666666705,12.194444444444443,161.16666666666669
34,44.4,0.1388888888888889,12.333333333333332,173.50000000000003
35,44.5,0.027777777777778172,12.36111111111111,185.86111111111114
36,44.2,-0.08333333333333254,12.277777777777779,198.1388888888889
37,42.7,-0.41666666666666663,11.861111111111112,210.00000000000003
38,39.9,-0.7777777777777789,11.083333333333332,221.08333333333337
39,37.0,-0.8055555555555551,10.277777777777777,231.36111111111114
40,34.6,-0.6666666666666663,9.61111111111111,240.97222222222226
41,32.3,-0.6388888888888901,8.972222222222221,249.94444444444449
42,29.0,-0.9166666666666659,8.055555555555555,258.00000000000006
43,25.1,-1.0833333333333328,6.972222222222222,264.9722222222223
44,22.2,-0.8055555555555561,6.166666666666666,271.13888888888897
45,20.9,-0.3611111111111113,5.805555555555555,276.9444444444445
46,20.4,-0.1388888888888889,5.666666666666666,282.6111111111112
47,19.5,-0.2499999999999996,5.416666666666667,288.0277777777779
48,18.4,-0.30555555555555597,5.111111111111111,293.13888888888897
49,17.8,-0.16666666666666607,4.944444444444445,298.0833333333334
50,17.8,0.0,4.944444444444445,303.0277777777779
51,17.4,-0.1111111111111117,4.833333333333333,307.8611111111112
52,15.7,-0.472222222222222,4.361111111111111,312.2222222222223
53,13.1,-0.7222222222222221,3.638888888888889,315.8611111111112
54,12.1,-0.2777777777777778,3.3611111111111107,319.2222222222223
55,12.0,-0.02777777777777768,3.333333333333333,322.5555555555556
56,12.0,0.0,3.333333333333333,325.8888888888889
57,12.0,0.0,3.333333333333333,329.22222222222223
58,12.3,0.08333333333333352,3.416666666666667,332.6388888888889
59,12.6,0.08333333333333304,3.5,336.1388888888889
60,14.7,0.5833333333333333,4.083333333333333,340.22222222222223
61,15.3,0.16666666666666705,4.25,344.47222222222223
62,15.9,0.16666666666666657,4.416666666666667,348.8888888888889
63,16.2,0.08333333333333304,4.5,353.3888888888889
64,17.1,0.2500000000000006,4.75,358.1388888888889
65,17.8,0.19444444444444425,4.944444444444445,363.08333333333337
66,18.1,0.08333333333333352,5.027777777777778,368.11111111111114
67,18.4,0.08333333333333254,5.111111111111111,373.22222222222223
68,20.3,0.5277777777777783,5.638888888888889,378.86111111111114
69,23.2,0.8055555555555551,6.444444444444444,385.3055555555556
70,26.5,0.9166666666666669,7.361111111111111,392.6666666666667
71,29.8,0.9166666666666669,8.277777777777779,400.94444444444446
72,32.6,0.7777777777777779,9.055555555555555,410.0
73,34.4,0.4999999999999992,9.555555555555555,419.55555555555554
74,35.5,0.30555555555555597,9.86111111111111,429.41666666666663
75,36.4,0.2499999999999996,10.11111111111111,439.5277777777777
76,37.4,0.2777777777777778,10.388888888888888,449.91666666666663
77,38.5,0.30555555555555597,10.694444444444445,460.6111111111111
78,39.3,0.22222222222222143,10.916666666666666,471.52777777777777
79,39.5,0.055555555555556344,10.972222222222221,482.5
80,39.0,-0.1388888888888889,10.833333333333334,493.3333333333333
81,38.5,-0.1388888888888889,10.694444444444445,504.02777777777777
82,37.3,-0.3333333333333341,10.36111111111111,514.3888888888889
83,37.0,-0.08333333333333254,10.277777777777777,524.6666666666667
84,36.7,-0.08333333333333254,10.194444444444445,534.8611111111112
85,35.9,-0.2222222222222234,9.972222222222221,544.8333333333334
86,35.3,-0.16666666666666705,9.805555555555555,554.6388888888889
87,34.6,-0.19444444444444325,9.61111111111111,564.25
88,34.2,-0.11111111111111072,9.5,573.75
89,31.9,-0.6388888888888901,8.86111111111111,582.6111111111111
90,27.3,-1.2777777777777772,7.583333333333333,590.1944444444445
91,22.0,-1.4722222222222223,6.111111111111111,596.3055555555555
92,17.0,-1.3888888888888888,4.722222222222222,601.0277777777777
93,14.2,-0.7777777777777779,3.944444444444444,604.9722222222222
94,12.0,-0.6111111111111109,3.333333333333333,608.3055555555555
95,9.1,-0.8055555555555556,2.5277777777777777,610.8333333333334
96,5.8,-0.9166666666666666,1.611111111111111,612.4444444444445
97,3.6,-0.611111111111111,1.0,613.4444444444445
98,2.2,-0.38888888888888884,0.6111111111111112,614.0555555555555
99,0.0,-0.6111111111111112,0.0,614.0555555555555
100,0.0,0.0,0.0,614.0555555555555
101,0.0,0.0,0.0,614.0555555555555
102,0.0,0.0,0.0,614.0555555555555
103,0.0,0.0,0.0,614.0555555555555
104,0.0,0.0,0.0,614.0555555555555
105,0.0,0.0,0.0,614.0555555555555
106,0.0,0.0,0.0,614.0555555555555
107,0.0,0.0,0.0,614.0555555555555
108,0.0,0.0,0.0,614.0555555555555
109,0.0,0.0,0.0,614.0555555555555
110,0.0,0.0,0.0,614.0555555555555
111,0.0,0.0,0.0,614.0555555555555
112,0.0,0.0,0.0,614.0555555555555
113,0.0,0.0,0.0,614.0555555555555
114,0.0,0.0,0.0,614.0555555555555
115,0.0,0.0,0.0,614.0555555555555
116,0.0,0.0,0.0,614.0555555555555
117,0.0,0.0,0.0,614.0555555555555
118,0.0,0.0,0.0,614.0555555555555
119,0.0,0.0,0.0,614.0555555555555
120,0.0,0.0,0.0,614.0555555555555
121,0.0,0.0,0.0,614.0555555555555
122,0.0,0.0,0.0,614.0555555555555
123,0.0,0.0,0.0,614.0555555555555
124,0.0,0.0,0.0,614.0555555555555
125,0.0,0.0,0.0,614.0555555555555
126,0.0,0.0,0.0,614.0555555555555
127,0.0,0.0,0.0,614.0555555555555
128,0.0,0.0,0.0,614.0555555555555
129,0.0,0.0,0.0,614.0555555555555
130,0.0,0.0,0.0,614.0555555555555
131,0.0,0.0,0.0,614.0555555555555
132,0.0,0.0,0.0,614.0555555555555
133,0.0,0.0,0.0,614.0555555555555
134,0.0,0.0,0.0,614.0555555555555
135,0.0,0.0,0.0,614.0555555555555
136,0.0,0.0,0.0,614.0555555555555
137,0.0,0.0,0.0,614.0555555555555
138,0.2,0.05555555555555556,0.05555555555555556,614.1111111111111
139,1.9,0.4722222222222222,0.5277777777777778,614.6388888888889
140,6.1,1.1666666666666665,1.6944444444444442,616.3333333333334
141,11.7,1.5555555555555554,3.2499999999999996,619.5833333333334
142,16.4,1.3055555555555554,4.555555555555555,624.1388888888889
143,18.9,0.6944444444444444,5.249999999999999,629.3888888888889
144,19.9,0.2777777777777778,5.527777777777778,634.9166666666667
145,20.8,0.2500000000000006,5.777777777777778,640.6944444444446
146,22.8,0.5555555555555556,6.333333333333333,647.0277777777779
147,25.4,0.7222222222222217,7.055555555555555,654.0833333333335
148,27.7,0.6388888888888891,7.694444444444444,661.7777777777779
149,29.2,0.41666666666666663,8.11111111111111,669.888888888889
150,29.8,0.16666666666666705,8.277777777777779,678.1666666666669
151,29.4,-0.1111111111111117,8.166666666666666,686.3333333333335
152,27.2,-0.6111111111111109,7.555555555555555,693.888888888889
153,22.6,-1.2777777777777772,6.277777777777778,700.1666666666669
154,17.3,-1.4722222222222223,4.805555555555555,704.9722222222224
155,13.3,-1.1111111111111112,3.6944444444444446,708.6666666666669
156,12.0,-0.3611111111111113,3.333333333333333,712.0000000000002
157,12.6,0.16666666666666657,3.5,715.5000000000002
158,14.1,0.41666666666666663,3.9166666666666665,719.4166666666669
159,17.2,0.8611111111111109,4.777777777777778,724.1944444444447
160,20.1,0.8055555555555561,5.583333333333334,729.777777777778
161,23.4,0.9166666666666659,6.499999999999999,736.277777777778
162,25.5,0.5833333333333337,7.083333333333333,743.3611111111114
163,27.6,0.5833333333333337,7.666666666666667,751.027777777778
164,29.5,0.5277777777777773,8.194444444444445,759.2222222222225
165,31.1,0.4444444444444448,8.63888888888889,767.8611111111114
166,32.1,0.2777777777777778,8.916666666666666,776.777777777778
167,33.2,0.30555555555555597,9.222222222222223,786.0000000000002
168,35.2,0.5555555555555556,9.777777777777779,795.777777777778
169,37.2,0.5555555555555556,10.333333333333334,806.1111111111114
170,38.0,0.22222222222222143,10.555555555555555,816.666666666667
171,37.4,-0.16666666666666705,10.388888888888888,827.0555555555559
172,35.1,-0.6388888888888881,9.75,836.8055555555559
173,31.0,-1.1388888888888893,8.61111111111111,845.416666666667
174,27.1,-1.0833333333333328,7.527777777777778,852.9444444444448
175,25.3,-0.5000000000000002,7.027777777777778,859.9722222222226
176,25.1,-0.05555555555555536,6.972222222222222,866.9444444444448
177,25.9,0.22222222222222143,7.194444444444444,874.1388888888893
178,27.8,0.5277777777777783,7.722222222222222,881.8611111111114
179,29.2,0.3888888888888885,8.11111111111111,889.9722222222225
180,29.6,0.1111111111111117,8.222222222222223,898.1944444444447
181,29.5,-0.027777777777778172,8.194444444444445,906.3888888888891
182,29.2,-0.08333333333333352,8.11111111111111,914.5000000000002
183,28.3,-0.2499999999999996,7.861111111111111,922.3611111111113
184,26.1,-0.6111111111111109,7.25,929.6111111111113
185,23.6,-0.6944444444444444,6.555555555555555,936.1666666666669
186,21.0,-0.7222222222222227,5.833333333333333,942.0000000000002
187,18.9,-0.5833333333333337,5.249999999999999,947.2500000000002
188,17.1,-0.4999999999999992,4.75,952.0000000000002
189,15.7,-0.38888888888888945,4.361111111111111,956.3611111111113
190,14.5,-0.33333333333333315,4.027777777777778,960.3888888888891
191,13.7,-0.2222222222222224,3.8055555555555554,964.1944444444447
192,12.9,-0.22222222222222193,3.5833333333333335,967.777777777778
193,12.5,-0.1111111111111112,3.4722222222222223,971.2500000000002
194,12.2,-0.08333333333333352,3.3888888888888884,974.6388888888891
195,12.0,-0.05555555555555536,3.333333333333333,977.9722222222225
196,12.0,0.0,3.333333333333333,981.3055555555559
197,12.0,0.0,3.333333333333333,984.6388888888893
198,12.0,0.0,3.333333333333333,987.9722222222226
199,12.5,0.1388888888888889,3.4722222222222223,991.4444444444448
200,13.0,0.1388888888888889,3.611111111111111,995.0555555555559
201,14.0,0.2777777777777778,3.888888888888889,998.9444444444448
202,15.0,0.2777777777777778,4.166666666666667,1003.1111111111114
203,16.5,0.41666666666666663,4.583333333333333,1007.6944444444448
204,19.0,0.6944444444444444,5.277777777777778,1012.9722222222226
205,21.2,0.6111111111111109,5.888888888888888,1018.8611111111115
206,23.8,0.7222222222222227,6.611111111111111,1025.4722222222226
207,26.9,0.8611111111111105,7.472222222222221,1032.9444444444448
208,29.6,0.7500000000000008,8.222222222222223,1041.166666666667
209,32.0,0.6666666666666663,8.88888888888889,1050.0555555555559
210,35.2,0.8888888888888896,9.777777777777779,1059.8333333333337
211,37.5,0.6388888888888881,10.416666666666666,1070.2500000000005
212,39.2,0.472222222222223,10.88888888888889,1081.1388888888894
213,40.5,0.36111111111111033,11.25,1092.3888888888894
214,41.6,0.30555555555555597,11.555555555555555,1103.944444444445
215,43.1,0.41666666666666663,11.972222222222223,1115.9166666666672
216,45.0,0.5277777777777773,12.5,1128.4166666666672
217,47.1,0.5833333333333337,13.083333333333334,1141.5000000000005
218,49.0,0.5277777777777773,13.61111111111111,1155.1111111111115
219,50.6,0.4444444444444448,14.055555555555555,1169.1666666666672
220,51.8,0.33333333333333215,14.388888888888888,1183.555555555556
221,52.7,0.25000000000000155,14.63888888888889,1198.194444444445
222,53.1,0.11111111111111072,14.75,1212.944444444445
223,53.5,0.11111111111111072,14.86111111111111,1227.805555555556
224,53.8,0.08333333333333254,14.944444444444443,1242.7500000000005
225,54.2,0.11111111111111269,15.055555555555555,1257.805555555556
226,54.8,0.16666666666666508,15.222222222222221,1273.0277777777783
227,55.3,0.1388888888888889,15.36111111111111,1288.3888888888894
228,55.8,0.1388888888888889,15.499999999999998,1303.8888888888894
229,56.2,0.11111111111111269,15.61111111111111,1319.5000000000005
230,56.5,0.08333333333333254,15.694444444444445,1335.1944444444448
231,56.5,0.0,15.694444444444445,1350.8888888888891
232,56.2,-0.08333333333333254,15.61111111111111,1366.5000000000002
233,54.9,-0.36111111111111227,15.25,1381.7500000000002
234,52.9,-0.5555555555555556,14.694444444444443,1396.4444444444446
235,51.0,-0.5277777777777773,14.166666666666666,1410.6111111111113
236,49.8,-0.3333333333333341,13.833333333333332,1424.4444444444446
237,49.2,-0.16666666666666508,13.666666666666668,1438.1111111111113
238,48.4,-0.2222222222222234,13.444444444444443,1451.5555555555557
239,46.9,-0.41666666666666663,13.027777777777777,1464.5833333333335
240,44.3,-0.7222222222222227,12.305555555555554,1476.8888888888891
241,41.5,-0.777777777777777,11.527777777777777,1488.416666666667
242,39.5,-0.5555555555555556,10.972222222222221,1499.3888888888891
243,37.0,-0.6944444444444444,10.277777777777777,1509.666666666667
244,34.6,-0.6666666666666663,9.61111111111111,1519.277777777778
245,32.3,-0.6388888888888901,8.972222222222221,1528.2500000000002
246,29.0,-0.9166666666666659,8.055555555555555,1536.3055555555559
247,25.1,-1.0833333333333328,6.972222222222222,1543.277777777778
248,22.2,-0.8055555555555561,6.166666666666666,1549.4444444444448
249,20.9,-0.3611111111111113,5.805555555555555,1555.2500000000005
250,20.4,-0.1388888888888889,5.666666666666666,1560.9166666666672
251,19.5,-0.2499999999999996,5.416666666666667,1566.333333333334
252,18.4,-0.30555555555555597,5.111111111111111,1571.444444444445
253,17.8,-0.16666666666666607,4.944444444444445,1576.3888888888894
254,17.8,0.0,4.944444444444445,1581.3333333333337
255,17.4,-0.1111111111111117,4.833333333333333,1586.166666666667
256,15.7,-0.472222222222222,4.361111111111111,1590.527777777778
257,14.5,-0.33333333333333315,4.027777777777778,1594.5555555555559
258,15.4,0.2500000000000001,4.277777777777778,1598.8333333333337
259,17.9,0.694444444444444,4.972222222222221,1603.8055555555559
260,20.6,0.7500000000000008,5.722222222222222,1609.527777777778
261,23.2,0.7222222222222217,6.444444444444444,1615.9722222222224
262,25.7,0.6944444444444444,7.138888888888888,1623.1111111111113
263,28.7,0.8333333333333333,7.972222222222221,1631.0833333333335
264,32.5,1.0555555555555558,9.027777777777777,1640.1111111111113
265,36.1,1.0000000000000004,10.027777777777779,1650.1388888888891
266,39.0,0.8055555555555551,10.833333333333334,1660.9722222222224
267,40.8,0.4999999999999992,11.333333333333332,1672.3055555555557
268,42.9,0.5833333333333337,11.916666666666666,1684.2222222222224
269,44.4,0.41666666666666663,12.333333333333332,1696.5555555555557
270,45.9,0.41666666666666663,12.75,1709.3055555555557
271,46.0,0.027777777777778172,12.777777777777777,1722.0833333333335
272,45.6,-0.11111111111111072,12.666666666666666,1734.7500000000002
273,45.3,-0.08333333333333452,12.583333333333332,1747.3333333333335
274,43.7,-0.44444444444444287,12.13888888888889,1759.4722222222224
275,40.8,-0.8055555555555571,11.333333333333332,1770.8055555555557
276,38.0,-0.777777777777777,10.555555555555555,1781.3611111111113
277,34.4,-1.0000000000000004,9.555555555555555,1790.916666666667
278,30.9,-0.9722222222222222,8.583333333333332,1799.5000000000002
279,25.5,-1.4999999999999996,7.083333333333333,1806.5833333333335
280,21.4,-1.1388888888888893,5.944444444444444,1812.5277777777778
281,20.2,-0.33333333333333315,5.611111111111111,1818.138888888889
282,22.9,0.7499999999999998,6.361111111111111,1824.5
283,26.6,1.0277777777777786,7.388888888888889,1831.888888888889
284,30.2,0.9999999999999993,8.38888888888889,1840.2777777777778
285,34.1,1.083333333333334,9.472222222222223,1849.75
286,37.4,0.9166666666666659,10.388888888888888,1860.138888888889
287,40.7,0.9166666666666679,11.305555555555555,1871.4444444444446
288,44.0,0.9166666666666659,12.222222222222221,1883.6666666666667
289,47.3,0.9166666666666659,13.138888888888888,1896.8055555555557
290,49.2,0.5277777777777793,13.666666666666668,1910.4722222222224
291,49.8,0.16666666666666508,13.833333333333332,1924.3055555555557
292,49.2,-0.16666666666666508,13.666666666666668,1937.9722222222224
293,48.1,-0.30555555555555597,13.36111111111111,1951.3333333333335
294,47.3,-0.2222222222222234,13.138888888888888,1964.4722222222224
295,46.8,-0.1388888888888889,12.999999999999998,1977.4722222222224
296,46.7,-0.027777777777776198,12.972222222222223,1990.4444444444446
297,46.8,0.027777777777776198,12.999999999999998,2003.4444444444446
298,47.1,0.08333333333333452,13.083333333333334,2016.5277777777778
299,47.3,0.05555555555555437,13.138888888888888,2029.6666666666667
300,47.3,0.0,13.138888888888888,2042.8055555555557
301,47.1,-0.05555555555555437,13.083333333333334,2055.888888888889
302,46.6,-0.1388888888888889,12.944444444444445,2068.8333333333335
303,45.8,-0.2222222222222234,12.722222222222221,2081.5555555555557
304,44.8,-0.2777777777777778,12.444444444444443,2094.0
305,43.3,-0.41666666666666663,12.027777777777777,2106.027777777778
306,41.8,-0.41666666666666663,11.61111111111111,2117.638888888889
307,40.8,-0.2777777777777778,11.333333333333332,2128.9722222222226
308,40.3,-0.1388888888888889,11.194444444444443,2140.166666666667
309,40.1,-0.05555555555555437,11.13888888888889,2151.3055555555557
310,39.7,-0.11111111111111072,11.027777777777779,2162.3333333333335
311,39.2,-0.1388888888888889,10.88888888888889,2173.222222222222
312,38.5,-0.19444444444444522,10.694444444444445,2183.9166666666665
313,37.4,-0.30555555555555597,10.388888888888888,2194.305555555555
314,36.0,-0.3888888888888885,10.0,2204.305555555555
315,34.4,-0.4444444444444448,9.555555555555555,2213.861111111111
316,33.0,-0.3888888888888885,9.166666666666666,2223.0277777777774
317,31.7,-0.3611111111111113,8.805555555555555,2231.833333333333
318,30.0,-0.472222222222222,8.333333333333334,2240.1666666666665
319,28.0,-0.5555555555555556,7.777777777777778,2247.9444444444443
320,26.1,-0.5277777777777773,7.25,2255.1944444444443
321,25.6,-0.1388888888888889,7.111111111111112,2262.3055555555557
322,24.9,-0.19444444444444522,6.916666666666666,2269.222222222222
323,24.9,0.0,6.916666666666666,2276.1388888888887
324,24.3,-0.16666666666666607,6.75,2282.8888888888887
325,23.9,-0.1111111111111117,6.638888888888888,2289.5277777777774
326,23.9,0.0,6.638888888888888,2296.166666666666
327,23.6,-0.08333333333333254,6.555555555555555,2302.7222222222217
328,23.3,-0.08333333333333352,6.472222222222222,2309.194444444444
329,20.5,-0.7777777777777779,5.694444444444445,2314.8888888888882
330,17.5,-0.8333333333333333,4.861111111111111,2319.7499999999995
331,16.9,-0.16666666666666705,4.694444444444444,2324.444444444444
332,16.7,-0.05555555555555536,4.638888888888888,2329.0833333333326
333,15.9,-0.22222222222222193,4.416666666666667,2333.499999999999
334,15.6,-0.08333333333333352,4.333333333333333,2337.8333333333326
335,15.0,-0.16666666666666657,4.166666666666667,2341.999999999999
336,14.5,-0.1388888888888889,4.027777777777778,2346.027777777777
337,14.3,-0.05555555555555536,3.9722222222222223,2349.999999999999
338,14.5,0.05555555555555536,4.027777777777778,2354.027777777777
339,15.4,0.2500000000000001,4.277777777777778,2358.3055555555547
340,17.8,0.6666666666666667,4.944444444444445,2363.249999999999
